#    s        x        y     Ue/Vinf    Dstar     Theta      Cf       H
   0.00000  1.00000  0.00126  1.03244  0.075294  0.012128 -0.000006     6.208
   0.00633  0.99375  0.00226  1.03340  0.074166  0.012037 -0.000006     6.161
   0.01737  0.98284  0.00398  1.03506  0.072148  0.011881 -0.000006     6.073
   0.03025  0.97011  0.00597  1.03701  0.069767  0.011703 -0.000006     5.962
   0.04469  0.95585  0.00815  1.03921  0.067083  0.011509 -0.000006     5.829
   0.06020  0.94051  0.01047  1.04160  0.064206  0.011306 -0.000006     5.679
   0.07634  0.92454  0.01283  1.04410  0.061232  0.011101 -0.000007     5.516
   0.09283  0.90822  0.01520  1.04668  0.058216  0.010900 -0.000007     5.341
   0.10949  0.89173  0.01755  1.04931  0.055208  0.010703 -0.000007     5.158
   0.12624  0.87514  0.01987  1.05198  0.052229  0.010514 -0.000007     4.968
   0.14303  0.85851  0.02215  1.05466  0.049291  0.010331 -0.000007     4.771
   0.15984  0.84185  0.02439  1.05734  0.046405  0.010158 -0.000006     4.568
   0.17666  0.82517  0.02659  1.06001  0.043572  0.009994 -0.000005     4.360
   0.19349  0.80848  0.02875  1.06262  0.040812  0.009841 -0.000004     4.147
   0.21032  0.79179  0.03087  1.06512  0.038122  0.009702 -0.000001     3.929
   0.22715  0.77508  0.03294  1.06740  0.035507  0.009583  0.000002     3.705
   0.24398  0.75837  0.03498  1.06927  0.032991  0.009489  0.000007     3.477
   0.26081  0.74166  0.03697  1.07058  0.030584  0.009427  0.000014     3.244
   0.27764  0.72495  0.03891  1.07298  0.028279  0.009319  0.000083     3.035
   0.29446  0.70823  0.04082  1.07852  0.026068  0.009083  0.000153     2.870
   0.31128  0.69152  0.04268  1.08539  0.024000  0.008809  0.000228     2.724
   0.32809  0.67481  0.04449  1.09356  0.022076  0.008505  0.000311     2.596
   0.34489  0.65810  0.04626  1.10296  0.020297  0.008179  0.000403     2.482
   0.36168  0.64140  0.04798  1.11345  0.018672  0.007840  0.000504     2.382
   0.37846  0.62470  0.04965  1.12498  0.017182  0.007493  0.000613     2.293
   0.39523  0.60801  0.05127  1.13740  0.015831  0.007147  0.000731     2.215
   0.41198  0.59133  0.05284  1.15060  0.014606  0.006805  0.000857     2.146
   0.42872  0.57466  0.05436  1.16450  0.013497  0.006472  0.000989     2.086
   0.44545  0.55800  0.05582  1.17897  0.012496  0.006149  0.001128     2.032
   0.46215  0.54136  0.05722  1.19393  0.011591  0.005839  0.001271     1.985
   0.47883  0.52473  0.05856  1.20931  0.010772  0.005543  0.001418     1.944
   0.49550  0.50811  0.05984  1.22508  0.010028  0.005259  0.001570     1.907
   0.51213  0.49152  0.06105  1.24115  0.009353  0.004991  0.001725     1.874
   0.52875  0.47495  0.06220  1.25759  0.008734  0.004734  0.001884     1.845
   0.54533  0.45839  0.06327  1.27424  0.008171  0.004492  0.002045     1.819
   0.56189  0.44187  0.06426  1.29130  0.007650  0.004259  0.002211     1.796
   0.57841  0.42537  0.06518  1.30863  0.007169  0.004039  0.002380     1.775
   0.59490  0.40891  0.06601  1.32633  0.006724  0.003828  0.002554     1.756
   0.61135  0.39247  0.06676  1.34444  0.006307  0.003627  0.002733     1.739
   0.62776  0.37608  0.06742  1.36290  0.005920  0.003434  0.002917     1.724
   0.64412  0.35972  0.06798  1.38193  0.005555  0.003249  0.003109     1.710
   0.66044  0.34341  0.06843  1.40147  0.005211  0.003071  0.003308     1.697
   0.67670  0.32715  0.06878  1.42160  0.004886  0.002900  0.003517     1.685
   0.69291  0.31094  0.06902  1.44252  0.004575  0.002735  0.003739     1.673
   0.70906  0.29480  0.06914  1.46405  0.004283  0.002576  0.003969     1.663
   0.72514  0.27872  0.06914  1.48660  0.004001  0.002421  0.004219     1.653
   0.74114  0.26272  0.06900  1.51011  0.003732  0.002271  0.004485     1.643
   0.75705  0.24681  0.06872  1.53476  0.003473  0.002126  0.004773     1.634
   0.77287  0.23099  0.06829  1.56077  0.003224  0.001984  0.005089     1.625
   0.78859  0.21529  0.06771  1.58815  0.002984  0.001847  0.005433     1.616
   0.80417  0.19972  0.06696  1.61739  0.002751  0.001713  0.005819     1.606
   0.81961  0.18431  0.06604  1.64851  0.002527  0.001582  0.006250     1.597
   0.83487  0.16909  0.06493  1.68210  0.002308  0.001454  0.006744     1.587
   0.84991  0.15411  0.06362  1.71833  0.002096  0.001330  0.007311     1.576
   0.86467  0.13942  0.06212  1.75762  0.001891  0.001209  0.007968     1.564
   0.87908  0.12512  0.06041  1.80057  0.001693  0.001091  0.008745     1.551
   0.89301  0.11131  0.05851  1.84760  0.001503  0.000978  0.009668     1.537
   0.90634  0.09815  0.05642  1.89896  0.001323  0.000869  0.010765     1.522
   0.91888  0.08581  0.05417  1.95499  0.001154  0.000766  0.012074     1.506
   0.93048  0.07446  0.05182  2.01544  0.000999  0.000671  0.013613     1.489
   0.94100  0.06422  0.04942  2.07973  0.000861  0.000584  0.015382     1.474
   0.95038  0.05515  0.04702  2.14744  0.000740  0.000507  0.017368     1.460
   0.95865  0.04722  0.04467  2.21767  0.000636  0.000438  0.019486     1.451
   0.96590  0.04034  0.04238  2.28917  0.000550  0.000379  0.021534     1.451
   0.97225  0.03438  0.04018  2.36188  0.000481  0.000328  0.023157     1.467
   0.97784  0.02921  0.03805  2.43367  0.000432  0.000284  0.023397     1.520
   0.98278  0.02471  0.03600  2.50480  0.000412  0.000248  0.020421     1.659
   0.98719  0.02078  0.03401  2.58413  0.000442  0.000215  0.011734     2.057
   0.99115  0.01732  0.03207  2.74266  0.000556  0.000161  0.001159     3.462
   0.99474  0.01429  0.03017  3.02933  0.000679  0.000073 -0.002511     9.279
   0.99801  0.01161  0.02829  3.04452  0.000599  0.000070 -0.002684     8.598
   1.00102  0.00926  0.02642  3.06080  0.000467  0.000067 -0.002969     7.007
   1.00380  0.00719  0.02455  3.08608  0.000331  0.000063 -0.003438     5.284
   1.00638  0.00541  0.02268  3.12980  0.000225  0.000057 -0.000647     3.921
   1.00880  0.00388  0.02080  3.19535  0.000158  0.000051  0.010598     3.118
   1.01108  0.00261  0.01891  3.26035  0.000122  0.000044  0.024455     2.753
   1.01324  0.00160  0.01700  3.29712  0.000099  0.000039  0.038326     2.555
   1.01530  0.00084  0.01509  3.29250  0.000085  0.000035  0.051313     2.429
   1.01726  0.00033  0.01320  3.23962  0.000075  0.000032  0.061465     2.349
   1.01914  0.00006  0.01133  3.14203  0.000070  0.000030  0.067619     2.301
   1.02097  0.00001  0.00951  3.00983  0.000066  0.000029  0.070530     2.268
   1.02283  0.00017  0.00766  2.84232  0.000063  0.000028  0.071100     2.238
   1.02476  0.00058  0.00577  2.63900  0.000062  0.000028  0.068555     2.214
   1.02679  0.00123  0.00385  2.40777  0.000063  0.000029  0.063434     2.191
   1.02891  0.00213  0.00193  2.16163  0.000065  0.000030  0.055222     2.185
   1.03114  0.00330  0.00002  1.91729  0.000068  0.000031  0.047294     2.173
   1.03351  0.00472 -0.00187  1.67973  0.000073  0.000034  0.038785     2.173
   1.03604  0.00640 -0.00376  1.45837  0.000078  0.000036  0.031459     2.170
   1.03875  0.00835 -0.00563  1.25381  0.000085  0.000039  0.024856     2.175
   1.04166  0.01059 -0.00751  1.06753  0.000092  0.000042  0.019544     2.175
   1.04483  0.01314 -0.00939  0.89683  0.000100  0.000046  0.015012     2.181
   1.04830  0.01603 -0.01129  0.74170  0.000109  0.000050  0.011351     2.187
   1.05212  0.01932 -0.01323  0.59937  0.000118  0.000054  0.008411     2.190
   1.05635  0.02307 -0.01521  0.46870  0.000129  0.000059  0.005962     2.202
   1.06109  0.02735 -0.01724  0.34737  0.000140  0.000064  0.004087     2.198
   1.06643  0.03226 -0.01935  0.23535  0.000154  0.000069  0.002460     2.224
   1.07250  0.03791 -0.02154  0.13008  0.000164  0.000074  0.001288     2.213
   1.07941  0.04444 -0.02381  0.03253  0.000191  0.000086  0.000272     2.230
   1.08731  0.05198 -0.02616 -0.05870  0.000191  0.000086  0.000492     2.230
   1.09629  0.06063 -0.02858 -0.14365  0.000221  0.000098  0.001011     2.260
   1.10642  0.07047 -0.03102 -0.22117  0.000236  0.000106  0.001495     2.234
   1.11768  0.08146 -0.03344 -0.29204  0.000261  0.000115  0.001725     2.272
   1.12994  0.09350 -0.03578 -0.35499  0.000280  0.000124  0.001970     2.260
   1.14306  0.10643 -0.03799 -0.41126  0.000305  0.000134  0.002066     2.278
   1.15686  0.12008 -0.04004 -0.46042  0.000327  0.000143  0.002147     2.281
   1.17118  0.13428 -0.04190 -0.50373  0.000350  0.000153  0.002178     2.289
   1.18590  0.14890 -0.04356 -0.54162  0.000374  0.000163  0.002182     2.296
   1.20092  0.16385 -0.04503 -0.57509  0.000396  0.000172  0.002175     2.301
   1.21619  0.17906 -0.04632 -0.60471  0.000418  0.000181  0.002152     2.307
   1.23164  0.19448 -0.04742 -0.63111  0.000440  0.000190  0.002125     2.312
   1.24726  0.21006 -0.04836 -0.65458  0.000463  0.000199  0.002085     2.319
   1.26301  0.22580 -0.04914 -0.67576  0.000484  0.000208  0.002051     2.322
   1.27888  0.24165 -0.04977 -0.69481  0.000505  0.000217  0.002008     2.328
   1.29484  0.25761 -0.05025 -0.71214  0.000526  0.000225  0.001970     2.332
   1.31090  0.27366 -0.05061 -0.72789  0.000546  0.000234  0.001929     2.336
   1.32704  0.28980 -0.05083 -0.74227  0.000567  0.000242  0.001888     2.341
   1.34324  0.30600 -0.05095 -0.75542  0.000587  0.000250  0.001847     2.345
   1.35952  0.32228 -0.05095 -0.76765  0.000606  0.000258  0.001814     2.348
   1.37585  0.33861 -0.05084 -0.77884  0.000626  0.000266  0.001773     2.352
   1.39223  0.35499 -0.05064 -0.78910  0.000646  0.000274  0.001733     2.357
   1.40867  0.37142 -0.05034 -0.79892  0.000664  0.000282  0.001708     2.357
   1.42515  0.38790 -0.04996 -0.80793  0.000683  0.000289  0.001672     2.361
   1.44167  0.40442 -0.04950 -0.81624  0.000703  0.000297  0.001635     2.366
   1.45823  0.42097 -0.04896 -0.82425  0.000720  0.000304  0.001611     2.367
   1.47483  0.43756 -0.04834 -0.83159  0.000738  0.000311  0.001577     2.371
   1.49146  0.45417 -0.04765 -0.83877  0.000755  0.000318  0.001558     2.370
   1.50813  0.47082 -0.04690 -0.84540  0.000772  0.000325  0.001529     2.374
   1.52482  0.48749 -0.04609 -0.85157  0.000790  0.000332  0.001499     2.378
   1.54153  0.50418 -0.04522 -0.85773  0.000805  0.000339  0.001484     2.376
   1.55828  0.52090 -0.04429 -0.86347  0.000822  0.000346  0.001461     2.378
   1.57504  0.53764 -0.04331 -0.86898  0.000838  0.000352  0.001440     2.380
   1.59183  0.55439 -0.04227 -0.87425  0.000853  0.000358  0.001421     2.381
   1.60863  0.57116 -0.04119 -0.87946  0.000868  0.000365  0.001407     2.380
   1.62545  0.58794 -0.04007 -0.88440  0.000882  0.000371  0.001390     2.381
   1.64229  0.60474 -0.03890 -0.88930  0.000896  0.000376  0.001378     2.380
   1.65914  0.62155 -0.03769 -0.89392  0.000910  0.000382  0.001361     2.381
   1.67600  0.63837 -0.03644 -0.89852  0.000923  0.000388  0.001350     2.380
   1.69288  0.65519 -0.03515 -0.90313  0.000935  0.000393  0.001344     2.378
   1.70976  0.67202 -0.03382 -0.90742  0.000949  0.000399  0.001329     2.379
   1.72666  0.68886 -0.03246 -0.91186  0.000959  0.000404  0.001324     2.376
   1.74356  0.70571 -0.03106 -0.91619  0.000970  0.000409  0.001318     2.375
   1.76046  0.72255 -0.02963 -0.92053  0.000980  0.000413  0.001314     2.372
   1.77738  0.73940 -0.02817 -0.92483  0.000990  0.000418  0.001310     2.370
   1.79429  0.75625 -0.02667 -0.92903  0.001000  0.000422  0.001304     2.368
   1.81121  0.77309 -0.02514 -0.93338  0.001008  0.000426  0.001305     2.364
   1.82812  0.78994 -0.02358 -0.93770  0.001016  0.000430  0.001305     2.361
   1.84504  0.80678 -0.02199 -0.94201  0.001024  0.000434  0.001305     2.358
   1.86195  0.82361 -0.02036 -0.94650  0.001029  0.000438  0.001312     2.352
   1.87886  0.84044 -0.01871 -0.95106  0.001034  0.000441  0.001319     2.347
   1.89575  0.85725 -0.01702 -0.95566  0.001039  0.000444  0.001325     2.342
   1.91263  0.87403 -0.01530 -0.96054  0.001041  0.000446  0.001340     2.334
   1.92946  0.89077 -0.01355 -0.96542  0.001044  0.000449  0.001351     2.327
   1.94620  0.90742 -0.01178 -0.97076  0.001043  0.000450  0.001374     2.316
   1.96277  0.92390 -0.01000 -0.97632  0.001040  0.000451  0.001400     2.305
   1.97900  0.94003 -0.00821 -0.98234  0.001034  0.000451  0.001438     2.291
   1.99458  0.95551 -0.00647 -0.98893  0.001022  0.000450  0.001489     2.271
   2.00906  0.96990 -0.00481 -0.99584  0.001008  0.000448  0.001550     2.251
   2.02198  0.98273 -0.00331 -1.00410  0.000981  0.000443  0.001658     2.216
   2.03304  0.99371 -0.00201 -1.01167  0.000959  0.000438  0.001747     2.190
   2.03937  1.00000 -0.00126 -1.03244  0.000833  0.000409  0.002333     2.037
   2.03937  1.00010 -0.00000  1.03244  0.078621  0.012537  0.000000     6.271
   2.04571  1.00643 -0.00009  1.03069  0.078111  0.012713  0.000000     6.144
   2.05313  1.01386 -0.00009  1.02805  0.077346  0.012978  0.000000     5.960
   2.06184  1.02257 -0.00001  1.02485  0.076351  0.013300  0.000000     5.741
   2.07205  1.03277  0.00016  1.02093  0.075082  0.013694  0.000000     5.483
   2.08401  1.04473  0.00047  1.01610  0.073482  0.014178  0.000000     5.183
   2.09804  1.05876  0.00093  1.01007  0.071478  0.014782  0.000000     4.835
   2.11449  1.07519  0.00160  1.00241  0.068987  0.015548  0.000000     4.437
   2.13377  1.09445  0.00254  0.99234  0.065917  0.016555  0.000000     3.982
   2.15638  1.11702  0.00381  0.97796  0.062224  0.017996  0.000000     3.458
   2.18289  1.14347  0.00553  0.95933  0.057854  0.019883  0.000000     2.910
   2.21396  1.17446  0.00781  0.94780  0.052739  0.021047  0.000000     2.506
   2.25039  1.21077  0.01079  0.94070  0.047326  0.021745  0.000000     2.176
   2.29311  1.25331  0.01466  0.93832  0.042002  0.021969  0.000000     1.912
   2.34318  1.30313  0.01966  0.94020  0.037133  0.021803  0.000000     1.703
   2.40189  1.36149  0.02605  0.94512  0.032966  0.021394  0.000000     1.541
   2.47072  1.42984  0.03418  0.95161  0.029577  0.020891  0.000000     1.416
   2.55141  1.50988  0.04447  0.95843  0.026906  0.020395  0.000000     1.319
   2.64602  1.60359  0.05741  0.96483  0.024832  0.019954  0.000000     1.245
   2.75693  1.71332  0.07361  0.97052  0.023229  0.019580  0.000000     1.186
   2.88697  1.84178  0.09377  0.97541  0.021993  0.019271  0.000000     1.141
   3.03942  1.99218  0.11875  0.98203  0.020866  0.018869  0.000000     1.106
